URL	chrom://pc-3vxg514/ChromeleonLocal/Data/2025/2025_w26.seq/79027.smp/UV_VIS_2.channel/UV_VIS_2.chm
Channel	UV_VIS_2

Injection Information:
Data Vault	ChromeleonLocal
Sequence	2025_w26
Name	4C-DMBO_iEDDAC_15jul25
Number	1420
Position	RC2
Comment	
Processing Method	General_ILK
Instrument Method	5-100pct_positive_3min
Type	Calibration Standard
Status	Finished
Inject Time	7/17/2025 11:26:28 AM +02:00
Volume (µl)	12.0000
Dilution Factor	1.0000
Weight	1.0000

Chromatogram Data Information:
Time Min. (min)	0.000000
Time Max. (min)	3.100000
Data Points	931
Detector	UV
Generating Data System	Chromeleon 7.3.2.11814
Exporting Data System	Chromeleon 7.3.2.0
Operator	Instrument Controller
Signal Quantity	Absorbance
Signal Unit	mAU
Signal Min.	-0.163064
Signal Max.	801.458516
Channel	UV_VIS_2
Driver Name	DAD3000.dll
Channel Type	Evaluation
Min. Step (s)	0.2
Max. Step (s)	0.2
Average Step (s)	0.2

Signal Parameter Information:
Signal Info	WVL:254 nm

Chromatogram Data:
Time (min)	Step (s)	Value (mAU)
0.000000	n.a.	0.000000
0.003333	0.2	-0.000242
0.006667	0.2	-0.001650
0.010000	0.2	-0.005394
0.013333	0.2	-0.011623
0.016667	0.2	-0.019086
0.020000	0.2	-0.026060
0.023333	0.2	-0.031524
0.026667	0.2	-0.035700
0.030000	0.2	-0.039602
0.033333	0.2	-0.044178
0.036667	0.2	-0.049736
0.040000	0.2	-0.055666
0.043333	0.2	-0.060821
0.046667	0.2	-0.064499
0.050000	0.2	-0.066825
0.053333	0.2	-0.068422
0.056667	0.2	-0.069924
0.060000	0.2	-0.071571
0.063333	0.2	-0.073411
0.066667	0.2	-0.075827
0.070000	0.2	-0.079393
0.073333	0.2	-0.084060
0.076667	0.2	-0.088843
0.080000	0.2	-0.092637
0.083333	0.2	-0.095044
0.086667	0.2	-0.096393
0.090000	0.2	-0.097413
0.093333	0.2	-0.098868
0.096667	0.2	-0.101208
0.100000	0.2	-0.104452
0.103333	0.2	-0.108425
0.106667	0.2	-0.112944
0.110000	0.2	-0.117718
0.113333	0.2	-0.122371
0.116667	0.2	-0.126660
0.120000	0.2	-0.130511
0.123333	0.2	-0.134007
0.126667	0.2	-0.137345
0.130000	0.2	-0.140539
0.133333	0.2	-0.143344
0.136667	0.2	-0.145668
0.140000	0.2	-0.147819
0.143333	0.2	-0.150142
0.146667	0.2	-0.152591
0.150000	0.2	-0.154801
0.153333	0.2	-0.156499
0.156667	0.2	-0.157974
0.160000	0.2	-0.160077
0.163333	0.2	-0.163064
0.166667	0.2	0.251571
0.170000	0.2	3.447079
0.173333	0.2	14.125695
0.176667	0.2	34.653472
0.180000	0.2	59.703340
0.183333	0.2	79.333358
0.186667	0.2	87.538195
0.190000	0.2	85.668397
0.193333	0.2	78.904394
0.196667	0.2	71.411941
0.200000	0.2	64.274855
0.203333	0.2	56.529849
0.206667	0.2	47.270045
0.210000	0.2	36.756158
0.213333	0.2	26.160048
0.216667	0.2	16.800995
0.220000	0.2	9.575064
0.223333	0.2	4.727859
0.226667	0.2	1.945690
0.230000	0.2	0.638549
0.233333	0.2	0.204638
0.236667	0.2	0.181738
0.240000	0.2	0.302245
0.243333	0.2	0.464136
0.246667	0.2	0.644230
0.250000	0.2	0.820107
0.253333	0.2	0.950357
0.256667	0.2	1.020565
0.260000	0.2	1.130263
0.263333	0.2	1.519960
0.266667	0.2	2.451505
0.270000	0.2	4.075090
0.273333	0.2	6.443397
0.276667	0.2	9.531076
0.280000	0.2	13.096731
0.283333	0.2	16.592133
0.286667	0.2	19.389314
0.290000	0.2	21.192430
0.293333	0.2	22.243075
0.296667	0.2	23.156648
0.300000	0.2	24.581594
0.303333	0.2	26.943208
0.306667	0.2	30.372865
0.310000	0.2	34.778814
0.313333	0.2	39.972173
0.316667	0.2	45.782948
0.320000	0.2	52.139642
0.323333	0.2	59.119147
0.326667	0.2	66.993518
0.330000	0.2	76.303384
0.333333	0.2	87.971855
0.336667	0.2	103.422204
0.340000	0.2	124.567991
0.343333	0.2	153.471598
0.346667	0.2	191.563728
0.350000	0.2	238.650827
0.353333	0.2	292.290458
0.356667	0.2	348.088040
0.360000	0.2	400.948742
0.363333	0.2	446.698546
0.366667	0.2	483.279335
0.370000	0.2	511.040383
0.373333	0.2	532.178968
0.376667	0.2	549.745171
0.380000	0.2	566.675654
0.383333	0.2	585.156361
0.386667	0.2	606.397147
0.390000	0.2	630.730735
0.393333	0.2	657.853544
0.396667	0.2	687.011843
0.400000	0.2	717.015099
0.403333	0.2	746.111167
0.406667	0.2	771.889270
0.410000	0.2	791.385945
0.413333	0.2	801.458516
0.416667	0.2	799.345205
0.420000	0.2	783.234759
0.423333	0.2	752.668571
0.426667	0.2	708.676970
0.430000	0.2	653.641325
0.433333	0.2	590.933900
0.436667	0.2	524.420497
0.440000	0.2	457.925699
0.443333	0.2	394.759306
0.446667	0.2	337.383894
0.450000	0.2	287.268194
0.453333	0.2	244.926128
0.456667	0.2	210.099384
0.460000	0.2	182.015932
0.463333	0.2	159.654420
0.466667	0.2	141.960086
0.470000	0.2	127.982892
0.473333	0.2	116.935909
0.476667	0.2	108.195165
0.480000	0.2	101.271786
0.483333	0.2	95.780789
0.486667	0.2	91.417795
0.490000	0.2	87.943253
0.493333	0.2	85.168343
0.496667	0.2	82.939271
0.500000	0.2	81.120455
0.503333	0.2	79.578898
0.506667	0.2	78.173287
0.510000	0.2	76.750768
0.513333	0.2	75.152883
0.516667	0.2	73.230654
0.520000	0.2	70.865096
0.523333	0.2	67.986077
0.526667	0.2	64.583819
0.530000	0.2	60.710452
0.533333	0.2	56.470617
0.536667	0.2	52.002795
0.540000	0.2	47.456399
0.543333	0.2	42.970827
0.546667	0.2	38.662053
0.550000	0.2	34.618878
0.553333	0.2	30.904200
0.556667	0.2	27.555501
0.560000	0.2	24.584464
0.563333	0.2	21.978154
0.566667	0.2	19.703123
0.570000	0.2	17.712861
0.573333	0.2	15.957353
0.576667	0.2	14.391903
0.580000	0.2	12.982592
0.583333	0.2	11.707459
0.586667	0.2	10.554294
0.590000	0.2	9.516688
0.593333	0.2	8.590062
0.596667	0.2	7.769054
0.600000	0.2	7.046555
0.603333	0.2	6.414089
0.606667	0.2	5.862854
0.610000	0.2	5.384128
0.613333	0.2	4.968793
0.616667	0.2	4.607496
0.620000	0.2	4.291905
0.623333	0.2	4.015250
0.626667	0.2	3.771622
0.630000	0.2	3.555513
0.633333	0.2	3.362028
0.636667	0.2	3.187118
0.640000	0.2	3.027829
0.643333	0.2	2.882356
0.646667	0.2	2.749431
0.650000	0.2	2.627650
0.653333	0.2	2.515527
0.656667	0.2	2.411974
0.660000	0.2	2.316395
0.663333	0.2	2.228145
0.666667	0.2	2.146123
0.670000	0.2	2.069121
0.673333	0.2	1.996437
0.676667	0.2	1.927794
0.680000	0.2	1.862791
0.683333	0.2	1.801070
0.686667	0.2	1.742728
0.690000	0.2	1.687989
0.693333	0.2	1.636962
0.696667	0.2	1.590055
0.700000	0.2	1.547946
0.703333	0.2	1.510681
0.706667	0.2	1.477139
0.710000	0.2	1.445545
0.713333	0.2	1.414048
0.716667	0.2	1.380884
0.720000	0.2	1.345021
0.723333	0.2	1.307116
0.726667	0.2	1.269167
0.730000	0.2	1.232730
0.733333	0.2	1.197855
0.736667	0.2	1.163766
0.740000	0.2	1.129704
0.743333	0.2	1.095240
0.746667	0.2	1.060416
0.750000	0.2	1.025474
0.753333	0.2	0.990699
0.756667	0.2	0.956624
0.760000	0.2	0.923657
0.763333	0.2	0.891665
0.766667	0.2	0.860230
0.770000	0.2	0.829038
0.773333	0.2	0.798136
0.776667	0.2	0.768004
0.780000	0.2	0.739119
0.783333	0.2	0.711562
0.786667	0.2	0.685193
0.790000	0.2	0.659651
0.793333	0.2	0.634131
0.796667	0.2	0.607709
0.800000	0.2	0.580042
0.803333	0.2	0.551599
0.806667	0.2	0.523308
0.810000	0.2	0.495848
0.813333	0.2	0.469103
0.816667	0.2	0.442572
0.820000	0.2	0.416214
0.823333	0.2	0.390381
0.826667	0.2	0.365509
0.830000	0.2	0.342248
0.833333	0.2	0.321043
0.836667	0.2	0.301418
0.840000	0.2	0.282431
0.843333	0.2	0.263809
0.846667	0.2	0.246017
0.850000	0.2	0.229410
0.853333	0.2	0.214016
0.856667	0.2	0.199992
0.860000	0.2	0.187632
0.863333	0.2	0.176956
0.866667	0.2	0.167665
0.870000	0.2	0.159457
0.873333	0.2	0.152338
0.876667	0.2	0.146852
0.880000	0.2	0.143720
0.883333	0.2	0.142947
0.886667	0.2	0.143727
0.890000	0.2	0.145270
0.893333	0.2	0.147195
0.896667	0.2	0.149345
0.900000	0.2	0.151742
0.903333	0.2	0.154569
0.906667	0.2	0.158022
0.910000	0.2	0.162307
0.913333	0.2	0.167417
0.916667	0.2	0.172889
0.920000	0.2	0.178172
0.923333	0.2	0.183154
0.926667	0.2	0.188206
0.930000	0.2	0.193837
0.933333	0.2	0.200324
0.936667	0.2	0.207713
0.940000	0.2	0.215975
0.943333	0.2	0.224788
0.946667	0.2	0.233510
0.950000	0.2	0.241968
0.953333	0.2	0.250956
0.956667	0.2	0.261335
0.960000	0.2	0.272956
0.963333	0.2	0.284830
0.966667	0.2	0.295875
0.970000	0.2	0.305066
0.973333	0.2	0.311555
0.976667	0.2	0.315089
0.980000	0.2	0.315740
0.983333	0.2	0.313369
0.986667	0.2	0.308059
0.990000	0.2	0.300622
0.993333	0.2	0.292024
0.996667	0.2	0.282826
1.000000	0.2	0.273551
1.003333	0.2	0.264860
1.006667	0.2	0.257138
1.010000	0.2	0.250507
1.013333	0.2	0.245173
1.016667	0.2	0.241303
1.020000	0.2	0.238873
1.023333	0.2	0.237932
1.026667	0.2	0.238699
1.030000	0.2	0.241446
1.033333	0.2	0.246434
1.036667	0.2	0.253652
1.040000	0.2	0.262584
1.043333	0.2	0.272370
1.046667	0.2	0.282226
1.050000	0.2	0.292021
1.053333	0.2	0.302327
1.056667	0.2	0.313557
1.060000	0.2	0.325536
1.063333	0.2	0.338003
1.066667	0.2	0.350661
1.070000	0.2	0.362907
1.073333	0.2	0.374303
1.076667	0.2	0.385018
1.080000	0.2	0.395593
1.083333	0.2	0.406687
1.086667	0.2	0.419064
1.090000	0.2	0.433390
1.093333	0.2	0.449824
1.096667	0.2	0.468012
1.100000	0.2	0.487414
1.103333	0.2	0.507184
1.106667	0.2	0.525956
1.110000	0.2	0.542216
1.113333	0.2	0.554884
1.116667	0.2	0.563497
1.120000	0.2	0.568097
1.123333	0.2	0.569321
1.126667	0.2	0.568661
1.130000	0.2	0.567952
1.133333	0.2	0.568309
1.136667	0.2	0.570092
1.140000	0.2	0.573665
1.143333	0.2	0.579223
1.146667	0.2	0.586200
1.150000	0.2	0.593792
1.153333	0.2	0.601756
1.156667	0.2	0.610277
1.160000	0.2	0.619468
1.163333	0.2	0.629373
1.166667	0.2	0.640199
1.170000	0.2	0.652053
1.173333	0.2	0.664528
1.176667	0.2	0.676889
1.180000	0.2	0.688629
1.183333	0.2	0.699746
1.186667	0.2	0.710379
1.190000	0.2	0.720549
1.193333	0.2	0.730654
1.196667	0.2	0.741482
1.200000	0.2	0.753343
1.203333	0.2	0.765834
1.206667	0.2	0.778362
1.210000	0.2	0.790485
1.213333	0.2	0.802070
1.216667	0.2	0.813512
1.220000	0.2	0.825554
1.223333	0.2	0.838666
1.226667	0.2	0.852627
1.230000	0.2	0.866729
1.233333	0.2	0.880640
1.236667	0.2	0.894898
1.240000	0.2	0.910146
1.243333	0.2	0.926266
1.246667	0.2	0.942572
1.250000	0.2	0.958472
1.253333	0.2	0.973593
1.256667	0.2	0.987441
1.260000	0.2	0.999723
1.263333	0.2	1.011182
1.266667	0.2	1.023216
1.270000	0.2	1.036487
1.273333	0.2	1.050460
1.276667	0.2	1.064219
1.280000	0.2	1.077504
1.283333	0.2	1.090842
1.286667	0.2	1.104857
1.290000	0.2	1.120010
1.293333	0.2	1.136669
1.296667	0.2	1.154830
1.300000	0.2	1.174352
1.303333	0.2	1.195732
1.306667	0.2	1.219589
1.310000	0.2	1.245462
1.313333	0.2	1.272178
1.316667	0.2	1.299231
1.320000	0.2	1.327174
1.323333	0.2	1.356853
1.326667	0.2	1.388562
1.330000	0.2	1.421959
1.333333	0.2	1.456447
1.336667	0.2	1.491268
1.340000	0.2	1.525428
1.343333	0.2	1.558009
1.346667	0.2	1.588681
1.350000	0.2	1.618013
1.353333	0.2	1.647610
1.356667	0.2	1.680025
1.360000	0.2	1.718024
1.363333	0.2	1.762897
1.366667	0.2	1.812942
1.370000	0.2	1.863962
1.373333	0.2	1.911439
1.376667	0.2	1.952298
1.380000	0.2	1.985387
1.383333	0.2	2.011492
1.386667	0.2	2.032959
1.390000	0.2	2.052694
1.393333	0.2	2.073615
1.396667	0.2	2.098769
1.400000	0.2	2.130933
1.403333	0.2	2.171664
1.406667	0.2	2.220782
1.410000	0.2	2.276521
1.413333	0.2	2.335519
1.416667	0.2	2.392430
1.420000	0.2	2.440404
1.423333	0.2	2.472894
1.426667	0.2	2.485278
1.430000	0.2	2.475655
1.433333	0.2	2.445377
1.436667	0.2	2.399142
1.440000	0.2	2.343855
1.443333	0.2	2.286588
1.446667	0.2	2.233029
1.450000	0.2	2.187014
1.453333	0.2	2.150721
1.456667	0.2	2.124766
1.460000	0.2	2.108099
1.463333	0.2	2.098500
1.466667	0.2	2.093766
1.470000	0.2	2.092422
1.473333	0.2	2.093372
1.476667	0.2	2.095560
1.480000	0.2	2.098592
1.483333	0.2	2.103372
1.486667	0.2	2.111680
1.490000	0.2	2.125024
1.493333	0.2	2.143672
1.496667	0.2	2.166486
1.500000	0.2	2.191607
1.503333	0.2	2.217222
1.506667	0.2	2.242102
1.510000	0.2	2.266220
1.513333	0.2	2.291233
1.516667	0.2	2.320289
1.520000	0.2	2.357110
1.523333	0.2	2.404932
1.526667	0.2	2.465763
1.530000	0.2	2.539722
1.533333	0.2	2.624601
1.536667	0.2	2.716584
1.540000	0.2	2.812303
1.543333	0.2	2.910055
1.546667	0.2	3.008536
1.550000	0.2	3.104351
1.553333	0.2	3.190471
1.556667	0.2	3.257276
1.560000	0.2	3.295821
1.563333	0.2	3.301087
1.566667	0.2	3.273876
1.570000	0.2	3.220718
1.573333	0.2	3.151670
1.576667	0.2	3.077439
1.580000	0.2	3.007041
1.583333	0.2	2.946654
1.586667	0.2	2.899873
1.590000	0.2	2.868326
1.593333	0.2	2.852104
1.596667	0.2	2.850272
1.600000	0.2	2.861319
1.603333	0.2	2.883173
1.606667	0.2	2.912959
1.610000	0.2	2.947114
1.613333	0.2	2.981928
1.616667	0.2	3.014196
1.620000	0.2	3.041685
1.623333	0.2	3.063050
1.626667	0.2	3.077438
1.630000	0.2	3.084563
1.633333	0.2	3.085316
1.636667	0.2	3.081846
1.640000	0.2	3.076549
1.643333	0.2	3.071050
1.646667	0.2	3.066345
1.650000	0.2	3.063460
1.653333	0.2	3.063605
1.656667	0.2	3.067869
1.660000	0.2	3.076942
1.663333	0.2	3.091270
1.666667	0.2	3.111205
1.670000	0.2	3.136498
1.673333	0.2	3.165970
1.676667	0.2	3.198051
1.680000	0.2	3.231485
1.683333	0.2	3.265587
1.686667	0.2	3.299973
1.690000	0.2	3.334132
1.693333	0.2	3.366972
1.696667	0.2	3.396689
1.700000	0.2	3.421740
1.703333	0.2	3.442198
1.706667	0.2	3.460335
1.710000	0.2	3.480432
1.713333	0.2	3.507722
1.716667	0.2	3.546171
1.720000	0.2	3.596149
1.723333	0.2	3.653808
1.726667	0.2	3.712664
1.730000	0.2	3.766361
1.733333	0.2	3.811864
1.736667	0.2	3.852210
1.740000	0.2	3.897162
1.743333	0.2	3.961133
1.746667	0.2	4.059036
1.750000	0.2	4.200861
1.753333	0.2	4.386022
1.756667	0.2	4.599449
1.760000	0.2	4.812507
1.763333	0.2	4.990632
1.766667	0.2	5.104839
1.770000	0.2	5.141283
1.773333	0.2	5.104633
1.776667	0.2	5.014864
1.780000	0.2	4.900319
1.783333	0.2	4.790159
1.786667	0.2	4.707931
1.790000	0.2	4.667410
1.793333	0.2	4.671473
1.796667	0.2	4.713457
1.800000	0.2	4.779916
1.803333	0.2	4.854319
1.806667	0.2	4.921400
1.810000	0.2	4.970896
1.813333	0.2	4.998780
1.816667	0.2	5.006128
1.820000	0.2	4.997352
1.823333	0.2	4.978402
1.826667	0.2	4.955289
1.830000	0.2	4.933610
1.833333	0.2	4.918509
1.836667	0.2	4.913827
1.840000	0.2	4.920749
1.843333	0.2	4.937126
1.846667	0.2	4.957894
1.850000	0.2	4.976492
1.853333	0.2	4.986513
1.856667	0.2	4.983273
1.860000	0.2	4.965984
1.863333	0.2	4.939840
1.866667	0.2	4.917456
1.870000	0.2	4.921458
1.873333	0.2	4.988395
1.876667	0.2	5.169920
1.880000	0.2	5.526766
1.883333	0.2	6.116653
1.886667	0.2	6.981719
1.890000	0.2	8.135099
1.893333	0.2	9.540845
1.896667	0.2	11.092949
1.900000	0.2	12.614384
1.903333	0.2	13.891446
1.906667	0.2	14.734550
1.910000	0.2	15.036212
1.913333	0.2	14.798003
1.916667	0.2	14.117841
1.920000	0.2	13.149400
1.923333	0.2	12.054937
1.926667	0.2	10.969394
1.930000	0.2	9.983037
1.933333	0.2	9.141745
1.936667	0.2	8.459340
1.940000	0.2	7.933536
1.943333	0.2	7.558065
1.946667	0.2	7.327214
1.950000	0.2	7.233406
1.953333	0.2	7.261825
1.956667	0.2	7.386572
1.960000	0.2	7.571571
1.963333	0.2	7.776398
1.966667	0.2	7.963382
1.970000	0.2	8.102523
1.973333	0.2	8.173705
1.976667	0.2	8.167126
1.980000	0.2	8.083247
1.983333	0.2	7.932658
1.986667	0.2	7.734534
1.990000	0.2	7.512950
1.993333	0.2	7.292608
1.996667	0.2	7.095843
2.000000	0.2	6.940996
2.003333	0.2	6.840913
2.006667	0.2	6.801139
2.010000	0.2	6.818913
2.013333	0.2	6.884272
2.016667	0.2	6.983495
2.020000	0.2	7.103971
2.023333	0.2	7.238142
2.026667	0.2	7.383512
2.030000	0.2	7.538426
2.033333	0.2	7.697219
2.036667	0.2	7.848756
2.040000	0.2	7.978995
2.043333	0.2	8.075601
2.046667	0.2	8.132725
2.050000	0.2	8.153718
2.053333	0.2	8.150491
2.056667	0.2	8.141347
2.060000	0.2	8.149313
2.063333	0.2	8.200136
2.066667	0.2	8.317950
2.070000	0.2	8.517724
2.073333	0.2	8.795860
2.076667	0.2	9.124264
2.080000	0.2	9.454298
2.083333	0.2	9.730264
2.086667	0.2	9.905427
2.090000	0.2	9.954235
2.093333	0.2	9.877455
2.096667	0.2	9.699822
2.100000	0.2	9.462744
2.103333	0.2	9.214963
2.106667	0.2	9.002330
2.110000	0.2	8.858099
2.113333	0.2	8.796764
2.116667	0.2	8.813715
2.120000	0.2	8.890505
2.123333	0.2	9.003754
2.126667	0.2	9.134045
2.130000	0.2	9.270435
2.133333	0.2	9.408616
2.136667	0.2	9.545199
2.140000	0.2	9.673672
2.143333	0.2	9.786740
2.146667	0.2	9.884449
2.150000	0.2	9.981810
2.153333	0.2	10.109223
2.156667	0.2	10.306191
2.160000	0.2	10.620415
2.163333	0.2	11.123101
2.166667	0.2	11.924056
2.170000	0.2	13.146704
2.173333	0.2	14.848955
2.176667	0.2	16.935372
2.180000	0.2	19.132298
2.183333	0.2	21.058610
2.186667	0.2	22.357175
2.190000	0.2	22.815501
2.193333	0.2	22.419845
2.196667	0.2	21.330934
2.200000	0.2	19.807983
2.203333	0.2	18.122251
2.206667	0.2	16.492824
2.210000	0.2	15.058166
2.213333	0.2	13.878679
2.216667	0.2	12.955854
2.220000	0.2	12.254938
2.223333	0.2	11.724983
2.226667	0.2	11.314786
2.230000	0.2	10.983450
2.233333	0.2	10.704849
2.236667	0.2	10.467908
2.240000	0.2	10.274689
2.243333	0.2	10.135936
2.246667	0.2	10.064039
2.250000	0.2	10.065674
2.253333	0.2	10.137291
2.256667	0.2	10.266107
2.260000	0.2	10.437197
2.263333	0.2	10.643549
2.266667	0.2	10.891947
2.270000	0.2	11.197019
2.273333	0.2	11.563337
2.276667	0.2	11.967576
2.280000	0.2	12.357022
2.283333	0.2	12.668906
2.286667	0.2	12.856801
2.290000	0.2	12.905862
2.293333	0.2	12.831365
2.296667	0.2	12.667126
2.300000	0.2	12.452644
2.303333	0.2	12.224693
2.306667	0.2	12.014233
2.310000	0.2	11.845671
2.313333	0.2	11.736185
2.316667	0.2	11.695334
2.320000	0.2	11.725891
2.323333	0.2	11.825628
2.326667	0.2	11.988792
2.330000	0.2	12.207306
2.333333	0.2	12.473171
2.336667	0.2	12.781252
2.340000	0.2	13.129396
2.343333	0.2	13.514807
2.346667	0.2	13.929379
2.350000	0.2	14.357400
2.353333	0.2	14.776661
2.356667	0.2	15.163761
2.360000	0.2	15.505568
2.363333	0.2	15.814699
2.366667	0.2	16.137787
2.370000	0.2	16.542109
2.373333	0.2	17.079555
2.376667	0.2	17.748467
2.380000	0.2	18.479785
2.383333	0.2	19.157155
2.386667	0.2	19.659189
2.390000	0.2	19.902695
2.393333	0.2	19.868816
2.396667	0.2	19.603141
2.400000	0.2	19.193038
2.403333	0.2	18.735187
2.406667	0.2	18.306929
2.410000	0.2	17.949274
2.413333	0.2	17.663500
2.416667	0.2	17.419327
2.420000	0.2	17.170981
2.423333	0.2	16.875957
2.426667	0.2	16.509943
2.430000	0.2	16.073568
2.433333	0.2	15.590441
2.436667	0.2	15.097887
2.440000	0.2	14.633777
2.443333	0.2	14.224930
2.446667	0.2	13.881525
2.450000	0.2	13.598090
2.453333	0.2	13.359131
2.456667	0.2	13.147044
2.460000	0.2	12.949323
2.463333	0.2	12.762923
2.466667	0.2	12.597382
2.470000	0.2	12.478139
2.473333	0.2	12.446308
2.476667	0.2	12.548836
2.480000	0.2	12.817490
2.483333	0.2	13.244404
2.486667	0.2	13.770419
2.490000	0.2	14.299064
2.493333	0.2	14.731429
2.496667	0.2	15.001089
2.500000	0.2	15.089493
2.503333	0.2	15.018260
2.506667	0.2	14.829297
2.510000	0.2	14.566279
2.513333	0.2	14.264650
2.516667	0.2	13.949480
2.520000	0.2	13.637207
2.523333	0.2	13.338353
2.526667	0.2	13.059558
2.530000	0.2	12.804459
2.533333	0.2	12.574464
2.536667	0.2	12.370009
2.540000	0.2	12.191509
2.543333	0.2	12.039352
2.546667	0.2	11.913341
2.550000	0.2	11.812366
2.553333	0.2	11.734315
2.556667	0.2	11.676177
2.560000	0.2	11.634763
2.563333	0.2	11.607306
2.566667	0.2	11.590692
2.570000	0.2	11.580160
2.573333	0.2	11.569595
2.576667	0.2	11.553963
2.580000	0.2	11.531931
2.583333	0.2	11.506075
2.586667	0.2	11.479747
2.590000	0.2	11.453570
2.593333	0.2	11.426106
2.596667	0.2	11.397824
2.600000	0.2	11.373328
2.603333	0.2	11.359616
2.606667	0.2	11.361836
2.610000	0.2	11.379904
2.613333	0.2	11.408775
2.616667	0.2	11.442281
2.620000	0.2	11.478080
2.623333	0.2	11.519448
2.626667	0.2	11.571087
2.630000	0.2	11.633418
2.633333	0.2	11.701644
2.636667	0.2	11.768692
2.640000	0.2	11.828580
2.643333	0.2	11.879286
2.646667	0.2	11.923576
2.650000	0.2	11.965955
2.653333	0.2	12.008232
2.656667	0.2	12.048577
2.660000	0.2	12.084724
2.663333	0.2	12.117512
2.666667	0.2	12.151664
2.670000	0.2	12.193856
2.673333	0.2	12.249536
2.676667	0.2	12.321886
2.680000	0.2	12.419041
2.683333	0.2	12.569147
2.686667	0.2	12.825896
2.690000	0.2	13.243828
2.693333	0.2	13.830902
2.696667	0.2	14.518023
2.700000	0.2	15.177488
2.703333	0.2	15.679799
2.706667	0.2	15.948150
2.710000	0.2	15.978803
2.713333	0.2	15.825882
2.716667	0.2	15.570067
2.720000	0.2	15.289460
2.723333	0.2	15.040100
2.726667	0.2	14.848580
2.730000	0.2	14.716963
2.733333	0.2	14.634993
2.736667	0.2	14.593310
2.740000	0.2	14.610865
2.743333	0.2	14.874828
2.746667	0.2	16.239956
2.750000	0.2	21.181407
2.753333	0.2	34.372249
2.756667	0.2	61.244416
2.760000	0.2	104.199954
2.763333	0.2	159.090123
2.766667	0.2	215.386128
2.770000	0.2	260.475079
2.773333	0.2	285.069384
2.776667	0.2	286.346363
2.780000	0.2	267.674811
2.783333	0.2	236.037189
2.786667	0.2	199.013849
2.790000	0.2	162.661187
2.793333	0.2	130.677155
2.796667	0.2	104.572069
2.800000	0.2	84.330067
2.803333	0.2	69.128490
2.806667	0.2	57.884559
2.810000	0.2	49.575972
2.813333	0.2	43.377568
2.816667	0.2	38.683296
2.820000	0.2	35.072045
2.823333	0.2	32.256237
2.826667	0.2	30.038405
2.830000	0.2	28.287955
2.833333	0.2	26.938502
2.836667	0.2	25.996915
2.840000	0.2	25.540539
2.843333	0.2	25.672390
2.846667	0.2	26.430987
2.850000	0.2	27.701433
2.853333	0.2	29.196726
2.856667	0.2	30.536357
2.860000	0.2	31.377925
2.863333	0.2	31.526743
2.866667	0.2	30.973880
2.870000	0.2	29.860693
2.873333	0.2	28.403802
2.876667	0.2	26.821062
2.880000	0.2	25.283267
2.883333	0.2	23.896223
2.886667	0.2	22.705000
2.890000	0.2	21.710283
2.893333	0.2	20.888615
2.896667	0.2	20.208639
2.900000	0.2	19.639528
2.903333	0.2	19.154518
2.906667	0.2	18.733491
2.910000	0.2	18.364839
2.913333	0.2	18.044446
2.916667	0.2	17.771389
2.920000	0.2	17.542998
2.923333	0.2	17.353054
2.926667	0.2	17.194625
2.930000	0.2	17.064019
2.933333	0.2	16.960803
2.936667	0.2	16.884331
2.940000	0.2	16.831212
2.943333	0.2	16.795734
2.946667	0.2	16.772058
2.950000	0.2	16.756281
2.953333	0.2	16.746898
2.956667	0.2	16.743554
2.960000	0.2	16.745959
2.963333	0.2	16.754415
2.966667	0.2	16.770488
2.970000	0.2	16.795830
2.973333	0.2	16.830421
2.976667	0.2	16.872971
2.980000	0.2	16.922377
2.983333	0.2	16.976673
2.986667	0.2	17.030297
2.990000	0.2	17.073826
2.993333	0.2	17.097265
2.996667	0.2	17.094306
3.000000	0.2	17.064507
3.003333	0.2	17.012619
3.006667	0.2	16.946430
3.010000	0.2	16.874238
3.013333	0.2	16.802861
3.016667	0.2	16.736942
3.020000	0.2	16.679247
3.023333	0.2	16.631294
3.026667	0.2	16.593958
3.030000	0.2	16.567845
3.033333	0.2	16.553316
3.036667	0.2	16.549700
3.040000	0.2	16.553824
3.043333	0.2	16.559933
3.046667	0.2	16.562238
3.050000	0.2	16.557569
3.053333	0.2	16.545627
3.056667	0.2	16.527720
3.060000	0.2	16.505826
3.063333	0.2	16.482491
3.066667	0.2	16.460905
3.070000	0.2	16.444285
3.073333	0.2	16.434537
3.076667	0.2	16.431038
3.080000	0.2	16.430504
3.083333	0.2	16.429143
3.086667	0.2	16.425727
3.090000	0.2	16.421569
3.093333	0.2	16.417732
3.096667	0.2	16.413523
3.100000	0.2	16.407231
