URL	chrom://pc-3vxg514/ChromeleonLocal/Data/2025/2025_w26.seq/10430.smp/UV_VIS_2.channel/UV_VIS_2.chm
Channel	UV_VIS_2

Injection Information:
Data Vault	ChromeleonLocal
Sequence	2025_w26
Name	4C-DMBO_SPAAC_15jul25
Number	1419
Position	RC1
Comment	
Processing Method	General_ILK
Instrument Method	5-100pct_positive_3min
Type	Calibration Standard
Status	Finished
Inject Time	7/17/2025 11:21:45 AM +02:00
Volume (µl)	12.0000
Dilution Factor	1.0000
Weight	1.0000

Chromatogram Data Information:
Time Min. (min)	0.000000
Time Max. (min)	3.100000
Data Points	931
Detector	UV
Generating Data System	Chromeleon 7.3.2.11814
Exporting Data System	Chromeleon 7.3.2.0
Operator	Instrument Controller
Signal Quantity	Absorbance
Signal Unit	mAU
Signal Min.	-0.172953
Signal Max.	1,200.339194
Channel	UV_VIS_2
Driver Name	DAD3000.dll
Channel Type	Evaluation
Min. Step (s)	0.2
Max. Step (s)	0.2
Average Step (s)	0.2

Signal Parameter Information:
Signal Info	WVL:254 nm

Chromatogram Data:
Time (min)	Step (s)	Value (mAU)
0.000000	n.a.	0.000000
0.003333	0.2	-0.000217
0.006667	0.2	-0.001450
0.010000	0.2	-0.004601
0.013333	0.2	-0.009473
0.016667	0.2	-0.014606
0.020000	0.2	-0.018501
0.023333	0.2	-0.020823
0.026667	0.2	-0.022565
0.030000	0.2	-0.025180
0.033333	0.2	-0.029390
0.036667	0.2	-0.034674
0.040000	0.2	-0.039847
0.043333	0.2	-0.043928
0.046667	0.2	-0.046590
0.050000	0.2	-0.048189
0.053333	0.2	-0.049395
0.056667	0.2	-0.050831
0.060000	0.2	-0.053153
0.063333	0.2	-0.056707
0.066667	0.2	-0.060896
0.070000	0.2	-0.064770
0.073333	0.2	-0.068256
0.076667	0.2	-0.072050
0.080000	0.2	-0.076395
0.083333	0.2	-0.080585
0.086667	0.2	-0.083739
0.090000	0.2	-0.085618
0.093333	0.2	-0.086661
0.096667	0.2	-0.087513
0.100000	0.2	-0.088673
0.103333	0.2	-0.090384
0.106667	0.2	-0.092686
0.110000	0.2	-0.095611
0.113333	0.2	-0.099205
0.116667	0.2	-0.103223
0.120000	0.2	-0.107008
0.123333	0.2	-0.109969
0.126667	0.2	-0.112109
0.130000	0.2	-0.113978
0.133333	0.2	-0.116200
0.136667	0.2	-0.118912
0.140000	0.2	-0.121440
0.143333	0.2	-0.122805
0.146667	0.2	-0.122543
0.150000	0.2	-0.121011
0.153333	0.2	-0.119334
0.156667	0.2	-0.118935
0.160000	0.2	-0.120659
0.163333	0.2	-0.128100
0.166667	0.2	0.127334
0.170000	0.2	2.532558
0.173333	0.2	11.527042
0.176667	0.2	30.304766
0.180000	0.2	54.853223
0.183333	0.2	75.466734
0.186667	0.2	85.147669
0.190000	0.2	84.214542
0.193333	0.2	77.597745
0.196667	0.2	69.914749
0.200000	0.2	62.846926
0.203333	0.2	55.682059
0.206667	0.2	47.334800
0.210000	0.2	37.718804
0.213333	0.2	27.796150
0.216667	0.2	18.983625
0.220000	0.2	12.597416
0.223333	0.2	9.496568
0.226667	0.2	9.933209
0.230000	0.2	13.578512
0.233333	0.2	19.635599
0.236667	0.2	27.025512
0.240000	0.2	34.641820
0.243333	0.2	41.573504
0.246667	0.2	47.210607
0.250000	0.2	51.247641
0.253333	0.2	53.638846
0.256667	0.2	54.551751
0.260000	0.2	54.337808
0.263333	0.2	53.441819
0.266667	0.2	52.184231
0.270000	0.2	50.603959
0.273333	0.2	48.569484
0.276667	0.2	45.974163
0.280000	0.2	42.738054
0.283333	0.2	38.732913
0.286667	0.2	33.890542
0.290000	0.2	28.419283
0.293333	0.2	22.840208
0.296667	0.2	17.771718
0.300000	0.2	13.666916
0.303333	0.2	10.697579
0.306667	0.2	8.796906
0.310000	0.2	7.766840
0.313333	0.2	7.369400
0.316667	0.2	7.375992
0.320000	0.2	7.586755
0.323333	0.2	7.839210
0.326667	0.2	8.014480
0.330000	0.2	8.040060
0.333333	0.2	7.887394
0.336667	0.2	7.564308
0.340000	0.2	7.103107
0.343333	0.2	6.547233
0.346667	0.2	5.940602
0.350000	0.2	5.321200
0.353333	0.2	4.718006
0.356667	0.2	4.150434
0.360000	0.2	3.629541
0.363333	0.2	3.159929
0.366667	0.2	2.741804
0.370000	0.2	2.372678
0.373333	0.2	2.048302
0.376667	0.2	1.763436
0.380000	0.2	1.512842
0.383333	0.2	1.291981
0.386667	0.2	1.097061
0.390000	0.2	0.924825
0.393333	0.2	0.772843
0.396667	0.2	0.639671
0.400000	0.2	0.524129
0.403333	0.2	0.424825
0.406667	0.2	0.340394
0.410000	0.2	0.269423
0.413333	0.2	0.210144
0.416667	0.2	0.160826
0.420000	0.2	0.120338
0.423333	0.2	0.087858
0.426667	0.2	0.062363
0.430000	0.2	0.042734
0.433333	0.2	0.027990
0.436667	0.2	0.017385
0.440000	0.2	0.010489
0.443333	0.2	0.007223
0.446667	0.2	0.007846
0.450000	0.2	0.012671
0.453333	0.2	0.021342
0.456667	0.2	0.032283
0.460000	0.2	0.042917
0.463333	0.2	0.050492
0.466667	0.2	0.052791
0.470000	0.2	0.048353
0.473333	0.2	0.036761
0.476667	0.2	0.019023
0.480000	0.2	-0.002750
0.483333	0.2	-0.026189
0.486667	0.2	-0.049283
0.490000	0.2	-0.070676
0.493333	0.2	-0.089627
0.496667	0.2	-0.105896
0.500000	0.2	-0.119774
0.503333	0.2	-0.131822
0.506667	0.2	-0.142280
0.510000	0.2	-0.150925
0.513333	0.2	-0.157564
0.516667	0.2	-0.162359
0.520000	0.2	-0.165733
0.523333	0.2	-0.168286
0.526667	0.2	-0.170685
0.530000	0.2	-0.172953
0.533333	0.2	-0.171904
0.536667	0.2	-0.156622
0.540000	0.2	-0.106097
0.543333	0.2	0.005814
0.546667	0.2	0.198987
0.550000	0.2	0.475998
0.553333	0.2	0.817889
0.556667	0.2	1.189013
0.560000	0.2	1.548647
0.563333	0.2	1.863205
0.566667	0.2	2.113196
0.570000	0.2	2.293748
0.573333	0.2	2.411052
0.576667	0.2	2.477349
0.580000	0.2	2.506218
0.583333	0.2	2.509459
0.586667	0.2	2.496171
0.590000	0.2	2.472959
0.593333	0.2	2.444028
0.596667	0.2	2.411743
0.600000	0.2	2.377707
0.603333	0.2	2.343173
0.606667	0.2	2.308833
0.610000	0.2	2.274788
0.613333	0.2	2.240640
0.616667	0.2	2.205740
0.620000	0.2	2.169618
0.623333	0.2	2.132333
0.626667	0.2	2.094510
0.630000	0.2	2.056844
0.633333	0.2	2.019565
0.636667	0.2	1.982458
0.640000	0.2	1.945149
0.643333	0.2	1.907394
0.646667	0.2	1.869391
0.650000	0.2	1.831946
0.653333	0.2	1.796041
0.656667	0.2	1.761949
0.660000	0.2	1.729010
0.663333	0.2	1.696428
0.666667	0.2	1.664131
0.670000	0.2	1.633015
0.673333	0.2	1.604686
0.676667	0.2	1.580801
0.680000	0.2	1.561910
0.683333	0.2	1.546608
0.686667	0.2	1.532130
0.690000	0.2	1.515842
0.693333	0.2	1.496143
0.696667	0.2	1.472436
0.700000	0.2	1.444918
0.703333	0.2	1.414514
0.706667	0.2	1.382616
0.710000	0.2	1.350519
0.713333	0.2	1.318950
0.716667	0.2	1.288104
0.720000	0.2	1.257942
0.723333	0.2	1.228292
0.726667	0.2	1.198836
0.730000	0.2	1.169386
0.733333	0.2	1.140201
0.736667	0.2	1.111695
0.740000	0.2	1.083875
0.743333	0.2	1.056463
0.746667	0.2	1.029339
0.750000	0.2	1.002574
0.753333	0.2	0.976188
0.756667	0.2	0.950096
0.760000	0.2	0.924084
0.763333	0.2	0.897795
0.766667	0.2	0.870969
0.770000	0.2	0.843574
0.773333	0.2	0.815655
0.776667	0.2	0.787339
0.780000	0.2	0.759109
0.783333	0.2	0.731887
0.786667	0.2	0.706440
0.790000	0.2	0.682531
0.793333	0.2	0.658935
0.796667	0.2	0.634577
0.800000	0.2	0.609447
0.803333	0.2	0.584020
0.806667	0.2	0.558440
0.810000	0.2	0.532912
0.813333	0.2	0.508064
0.816667	0.2	0.484302
0.820000	0.2	0.461377
0.823333	0.2	0.438833
0.826667	0.2	0.416585
0.830000	0.2	0.394911
0.833333	0.2	0.373998
0.836667	0.2	0.353835
0.840000	0.2	0.334402
0.843333	0.2	0.315625
0.846667	0.2	0.297259
0.850000	0.2	0.279051
0.853333	0.2	0.261100
0.856667	0.2	0.243962
0.860000	0.2	0.228319
0.863333	0.2	0.214612
0.866667	0.2	0.202923
0.870000	0.2	0.193077
0.873333	0.2	0.184810
0.876667	0.2	0.178024
0.880000	0.2	0.172963
0.883333	0.2	0.170135
0.886667	0.2	0.169919
0.890000	0.2	0.172090
0.893333	0.2	0.175724
0.896667	0.2	0.179615
0.900000	0.2	0.182880
0.903333	0.2	0.185376
0.906667	0.2	0.187829
0.910000	0.2	0.191539
0.913333	0.2	0.197544
0.916667	0.2	0.205873
0.920000	0.2	0.215750
0.923333	0.2	0.226361
0.926667	0.2	0.237070
0.930000	0.2	0.247207
0.933333	0.2	0.256279
0.936667	0.2	0.264397
0.940000	0.2	0.272280
0.943333	0.2	0.280835
0.946667	0.2	0.290592
0.950000	0.2	0.301279
0.953333	0.2	0.312164
0.956667	0.2	0.323136
0.960000	0.2	0.335114
0.963333	0.2	0.349049
0.966667	0.2	0.364575
0.970000	0.2	0.379968
0.973333	0.2	0.393499
0.976667	0.2	0.404344
0.980000	0.2	0.412121
0.983333	0.2	0.416294
0.986667	0.2	0.416422
0.990000	0.2	0.412644
0.993333	0.2	0.405687
0.996667	0.2	0.396558
1.000000	0.2	0.386117
1.003333	0.2	0.374801
1.006667	0.2	0.362926
1.010000	0.2	0.351291
1.013333	0.2	0.341106
1.016667	0.2	0.332985
1.020000	0.2	0.326335
1.023333	0.2	0.320336
1.026667	0.2	0.315329
1.030000	0.2	0.312698
1.033333	0.2	0.313542
1.036667	0.2	0.317934
1.040000	0.2	0.325157
1.043333	0.2	0.334142
1.046667	0.2	0.344122
1.050000	0.2	0.355085
1.053333	0.2	0.367268
1.056667	0.2	0.380546
1.060000	0.2	0.394494
1.063333	0.2	0.408573
1.066667	0.2	0.422201
1.070000	0.2	0.435000
1.073333	0.2	0.447203
1.076667	0.2	0.459836
1.080000	0.2	0.473961
1.083333	0.2	0.489547
1.086667	0.2	0.505839
1.090000	0.2	0.522660
1.093333	0.2	0.540482
1.096667	0.2	0.559594
1.100000	0.2	0.579939
1.103333	0.2	0.601443
1.106667	0.2	0.623831
1.110000	0.2	0.646141
1.113333	0.2	0.666691
1.116667	0.2	0.683581
1.120000	0.2	0.695480
1.123333	0.2	0.702361
1.126667	0.2	0.705392
1.130000	0.2	0.706105
1.133333	0.2	0.705875
1.136667	0.2	0.705745
1.140000	0.2	0.706385
1.143333	0.2	0.708347
1.146667	0.2	0.712341
1.150000	0.2	0.719106
1.153333	0.2	0.728922
1.156667	0.2	0.741234
1.160000	0.2	0.754845
1.163333	0.2	0.768430
1.166667	0.2	0.781117
1.170000	0.2	0.792999
1.173333	0.2	0.804784
1.176667	0.2	0.816771
1.180000	0.2	0.828502
1.183333	0.2	0.839464
1.186667	0.2	0.849769
1.190000	0.2	0.859805
1.193333	0.2	0.869542
1.196667	0.2	0.878835
1.200000	0.2	0.888007
1.203333	0.2	0.897337
1.206667	0.2	0.906503
1.210000	0.2	0.915282
1.213333	0.2	0.924235
1.216667	0.2	0.934203
1.220000	0.2	0.945491
1.223333	0.2	0.957831
1.226667	0.2	0.970960
1.230000	0.2	0.984925
1.233333	0.2	0.999982
1.236667	0.2	1.016591
1.240000	0.2	1.035033
1.243333	0.2	1.054680
1.246667	0.2	1.074294
1.250000	0.2	1.093004
1.253333	0.2	1.110409
1.256667	0.2	1.126267
1.260000	0.2	1.140687
1.263333	0.2	1.154169
1.266667	0.2	1.167297
1.270000	0.2	1.180776
1.273333	0.2	1.195326
1.276667	0.2	1.211188
1.280000	0.2	1.228287
1.283333	0.2	1.246771
1.286667	0.2	1.266864
1.290000	0.2	1.288568
1.293333	0.2	1.311675
1.296667	0.2	1.335720
1.300000	0.2	1.360149
1.303333	0.2	1.384677
1.306667	0.2	1.409139
1.310000	0.2	1.433312
1.313333	0.2	1.457348
1.316667	0.2	1.482376
1.320000	0.2	1.510080
1.323333	0.2	1.541140
1.326667	0.2	1.574654
1.330000	0.2	1.609310
1.333333	0.2	1.644293
1.336667	0.2	1.679289
1.340000	0.2	1.714216
1.343333	0.2	1.748803
1.346667	0.2	1.782588
1.350000	0.2	1.815884
1.353333	0.2	1.850730
1.356667	0.2	1.890483
1.360000	0.2	1.938077
1.363333	0.2	1.993900
1.366667	0.2	2.054776
1.370000	0.2	2.115045
1.373333	0.2	2.168924
1.376667	0.2	2.212509
1.380000	0.2	2.244763
1.383333	0.2	2.267348
1.386667	0.2	2.283681
1.390000	0.2	2.298286
1.393333	0.2	2.316449
1.396667	0.2	2.343300
1.400000	0.2	2.382639
1.403333	0.2	2.436300
1.406667	0.2	2.503796
1.410000	0.2	2.582147
1.413333	0.2	2.666131
1.416667	0.2	2.748616
1.420000	0.2	2.821024
1.423333	0.2	2.874653
1.426667	0.2	2.902534
1.430000	0.2	2.900812
1.433333	0.2	2.869395
1.436667	0.2	2.812351
1.440000	0.2	2.737701
1.443333	0.2	2.655713
1.446667	0.2	2.575944
1.450000	0.2	2.504970
1.453333	0.2	2.446288
1.456667	0.2	2.401537
1.460000	0.2	2.371223
1.463333	0.2	2.354446
1.466667	0.2	2.348593
1.470000	0.2	2.350067
1.473333	0.2	2.355806
1.476667	0.2	2.364254
1.480000	0.2	2.375207
1.483333	0.2	2.389359
1.486667	0.2	2.408215
1.490000	0.2	2.433286
1.493333	0.2	2.464123
1.496667	0.2	2.497372
1.500000	0.2	2.528235
1.503333	0.2	2.552871
1.506667	0.2	2.570056
1.510000	0.2	2.581558
1.513333	0.2	2.591387
1.516667	0.2	2.604620
1.520000	0.2	2.626753
1.523333	0.2	2.663644
1.526667	0.2	2.720839
1.530000	0.2	2.801583
1.533333	0.2	2.904874
1.536667	0.2	3.025634
1.540000	0.2	3.157264
1.543333	0.2	3.294662
1.546667	0.2	3.435456
1.550000	0.2	3.577996
1.553333	0.2	3.716554
1.556667	0.2	3.837678
1.560000	0.2	3.922324
1.563333	0.2	3.953651
1.566667	0.2	3.924999
1.570000	0.2	3.842855
1.573333	0.2	3.724211
1.576667	0.2	3.590387
1.580000	0.2	3.460451
1.583333	0.2	3.347368
1.586667	0.2	3.257609
1.590000	0.2	3.192639
1.593333	0.2	3.151015
1.596667	0.2	3.130303
1.600000	0.2	3.128031
1.603333	0.2	3.141654
1.606667	0.2	3.168257
1.610000	0.2	3.204859
1.613333	0.2	3.249041
1.616667	0.2	3.298576
1.620000	0.2	3.350130
1.623333	0.2	3.398501
1.626667	0.2	3.437412
1.630000	0.2	3.461836
1.633333	0.2	3.470377
1.636667	0.2	3.465499
1.640000	0.2	3.451774
1.643333	0.2	3.434212
1.646667	0.2	3.417297
1.650000	0.2	3.404201
1.653333	0.2	3.396461
1.656667	0.2	3.394364
1.660000	0.2	3.397465
1.663333	0.2	3.405150
1.666667	0.2	3.417266
1.670000	0.2	3.434183
1.673333	0.2	3.456630
1.676667	0.2	3.485624
1.680000	0.2	3.521836
1.683333	0.2	3.564804
1.686667	0.2	3.612611
1.690000	0.2	3.662012
1.693333	0.2	3.709293
1.696667	0.2	3.751543
1.700000	0.2	3.787428
1.703333	0.2	3.817236
1.706667	0.2	3.842565
1.710000	0.2	3.866086
1.713333	0.2	3.891632
1.716667	0.2	3.923810
1.720000	0.2	3.965777
1.723333	0.2	4.016599
1.726667	0.2	4.071342
1.730000	0.2	4.123884
1.733333	0.2	4.170375
1.736667	0.2	4.212418
1.740000	0.2	4.258831
1.743333	0.2	4.324467
1.746667	0.2	4.426248
1.750000	0.2	4.577479
1.753333	0.2	4.780946
1.756667	0.2	5.022875
1.760000	0.2	5.272633
1.763333	0.2	5.490773
1.766667	0.2	5.641604
1.770000	0.2	5.704258
1.773333	0.2	5.678460
1.776667	0.2	5.583433
1.780000	0.2	5.450859
1.783333	0.2	5.315229
1.786667	0.2	5.205570
1.790000	0.2	5.140686
1.793333	0.2	5.127346
1.796667	0.2	5.160355
1.800000	0.2	5.224946
1.803333	0.2	5.301984
1.806667	0.2	5.374036
1.810000	0.2	5.429238
1.813333	0.2	5.462356
1.816667	0.2	5.473867
1.820000	0.2	5.467914
1.823333	0.2	5.450601
1.826667	0.2	5.428776
1.830000	0.2	5.408551
1.833333	0.2	5.394288
1.836667	0.2	5.388490
1.840000	0.2	5.391654
1.843333	0.2	5.401902
1.846667	0.2	5.415048
1.850000	0.2	5.425415
1.853333	0.2	5.427398
1.856667	0.2	5.417613
1.860000	0.2	5.396766
1.863333	0.2	5.370453
1.866667	0.2	5.350072
1.870000	0.2	5.356331
1.873333	0.2	5.424910
1.876667	0.2	5.609396
1.880000	0.2	5.976566
1.883333	0.2	6.594679
1.886667	0.2	7.518845
1.890000	0.2	8.773009
1.893333	0.2	10.325175
1.896667	0.2	12.063021
1.900000	0.2	13.791175
1.903333	0.2	15.267596
1.906667	0.2	16.271737
1.910000	0.2	16.672387
1.913333	0.2	16.461683
1.916667	0.2	15.743399
1.920000	0.2	14.688049
1.923333	0.2	13.479159
1.926667	0.2	12.272337
1.930000	0.2	11.176366
1.933333	0.2	10.253018
1.936667	0.2	9.527867
1.940000	0.2	9.004177
1.943333	0.2	8.673128
1.946667	0.2	8.518363
1.950000	0.2	8.516607
1.953333	0.2	8.636511
1.956667	0.2	8.838450
1.960000	0.2	9.078134
1.963333	0.2	9.313672
1.966667	0.2	9.511482
1.970000	0.2	9.647266
1.973333	0.2	9.703755
1.976667	0.2	9.669750
1.980000	0.2	9.542324
1.983333	0.2	9.329810
1.986667	0.2	9.052360
1.990000	0.2	8.739490
1.993333	0.2	8.426318
1.996667	0.2	8.150635
2.000000	0.2	7.953654
2.003333	0.2	7.897630
2.006667	0.2	8.167604
2.010000	0.2	9.472034
2.013333	0.2	14.117025
2.016667	0.2	27.893310
2.020000	0.2	61.852723
2.023333	0.2	131.643780
2.026667	0.2	252.064738
2.030000	0.2	427.452516
2.033333	0.2	643.251494
2.036667	0.2	865.864147
2.040000	0.2	1,053.129976
2.043333	0.2	1,169.976507
2.046667	0.2	1,200.339194
2.050000	0.2	1,149.857956
2.053333	0.2	1,040.023236
2.056667	0.2	898.445417
2.060000	0.2	750.166181
2.063333	0.2	612.739039
2.066667	0.2	495.273603
2.070000	0.2	400.098428
2.073333	0.2	325.378538
2.076667	0.2	267.482058
2.080000	0.2	222.563388
2.083333	0.2	187.348819
2.086667	0.2	159.357818
2.090000	0.2	136.825570
2.093333	0.2	118.522434
2.096667	0.2	103.578723
2.100000	0.2	91.355388
2.103333	0.2	81.361375
2.106667	0.2	73.204364
2.110000	0.2	66.564788
2.113333	0.2	61.195272
2.116667	0.2	56.956446
2.120000	0.2	53.885790
2.123333	0.2	52.251060
2.126667	0.2	52.496188
2.130000	0.2	55.014002
2.133333	0.2	59.806582
2.136667	0.2	66.234924
2.140000	0.2	73.063123
2.143333	0.2	78.822691
2.146667	0.2	82.306037
2.150000	0.2	82.928532
2.153333	0.2	80.808919
2.156667	0.2	76.597459
2.160000	0.2	71.197562
2.163333	0.2	65.521863
2.166667	0.2	60.335368
2.170000	0.2	56.158065
2.173333	0.2	53.194437
2.176667	0.2	51.307451
2.180000	0.2	50.080081
2.183333	0.2	48.967586
2.186667	0.2	47.483083
2.190000	0.2	45.339008
2.193333	0.2	42.496543
2.196667	0.2	39.123297
2.200000	0.2	35.497003
2.203333	0.2	31.904137
2.206667	0.2	28.568439
2.210000	0.2	25.621185
2.213333	0.2	23.106576
2.216667	0.2	21.006055
2.220000	0.2	19.266235
2.223333	0.2	17.822315
2.226667	0.2	16.614261
2.230000	0.2	15.595376
2.233333	0.2	14.735014
2.236667	0.2	14.017490
2.240000	0.2	13.438104
2.243333	0.2	12.997221
2.246667	0.2	12.693830
2.250000	0.2	12.519582
2.253333	0.2	12.455398
2.256667	0.2	12.474199
2.260000	0.2	12.550838
2.263333	0.2	12.674613
2.266667	0.2	12.854918
2.270000	0.2	13.111167
2.273333	0.2	13.449317
2.276667	0.2	13.841685
2.280000	0.2	14.226911
2.283333	0.2	14.531713
2.286667	0.2	14.699980
2.290000	0.2	14.710529
2.293333	0.2	14.576329
2.296667	0.2	14.332546
2.300000	0.2	14.023824
2.303333	0.2	13.695645
2.306667	0.2	13.389445
2.310000	0.2	13.139121
2.313333	0.2	12.967813
2.316667	0.2	12.886225
2.320000	0.2	12.893950
2.323333	0.2	12.983181
2.326667	0.2	13.142838
2.330000	0.2	13.361744
2.333333	0.2	13.631222
2.336667	0.2	13.947548
2.340000	0.2	14.312555
2.343333	0.2	14.730155
2.346667	0.2	15.199260
2.350000	0.2	15.707087
2.353333	0.2	16.227987
2.356667	0.2	16.731109
2.360000	0.2	17.197441
2.363333	0.2	17.640647
2.366667	0.2	18.115652
2.370000	0.2	18.698009
2.373333	0.2	19.436975
2.376667	0.2	20.311482
2.380000	0.2	21.221557
2.383333	0.2	22.021520
2.386667	0.2	22.574118
2.390000	0.2	22.798461
2.393333	0.2	22.692884
2.396667	0.2	22.326506
2.400000	0.2	21.807164
2.403333	0.2	21.243101
2.406667	0.2	20.714580
2.410000	0.2	20.261299
2.413333	0.2	19.882440
2.416667	0.2	19.545302
2.420000	0.2	19.200784
2.423333	0.2	18.802182
2.426667	0.2	18.321706
2.430000	0.2	17.760318
2.433333	0.2	17.148574
2.436667	0.2	16.537422
2.440000	0.2	15.981027
2.443333	0.2	15.518516
2.446667	0.2	15.162988
2.450000	0.2	14.901761
2.453333	0.2	14.705376
2.456667	0.2	14.539935
2.460000	0.2	14.378810
2.463333	0.2	14.211658
2.466667	0.2	14.050158
2.470000	0.2	13.930679
2.473333	0.2	13.910394
2.476667	0.2	14.050683
2.480000	0.2	14.388303
2.483333	0.2	14.906624
2.486667	0.2	15.526341
2.490000	0.2	16.128134
2.493333	0.2	16.597481
2.496667	0.2	16.864528
2.500000	0.2	16.917663
2.503333	0.2	16.789920
2.506667	0.2	16.533426
2.510000	0.2	16.198411
2.513333	0.2	15.823656
2.516667	0.2	15.435885
2.520000	0.2	15.052952
2.523333	0.2	14.686863
2.526667	0.2	14.345378
2.530000	0.2	14.033116
2.533333	0.2	13.752913
2.536667	0.2	13.506965
2.540000	0.2	13.296952
2.543333	0.2	13.123423
2.546667	0.2	12.985470
2.550000	0.2	12.880694
2.553333	0.2	12.805242
2.556667	0.2	12.754329
2.560000	0.2	12.722968
2.563333	0.2	12.706086
2.566667	0.2	12.697998
2.570000	0.2	12.691655
2.573333	0.2	12.678926
2.576667	0.2	12.653098
2.580000	0.2	12.612076
2.583333	0.2	12.558964
2.586667	0.2	12.498869
2.590000	0.2	12.435157
2.593333	0.2	12.369379
2.596667	0.2	12.304204
2.600000	0.2	12.245189
2.603333	0.2	12.199570
2.606667	0.2	12.173402
2.610000	0.2	12.168787
2.613333	0.2	12.182640
2.616667	0.2	12.208917
2.620000	0.2	12.243700
2.623333	0.2	12.287844
2.626667	0.2	12.343683
2.630000	0.2	12.409950
2.633333	0.2	12.480512
2.636667	0.2	12.547040
2.640000	0.2	12.603372
2.643333	0.2	12.648905
2.646667	0.2	12.687986
2.650000	0.2	12.725521
2.653333	0.2	12.762616
2.656667	0.2	12.796527
2.660000	0.2	12.825211
2.663333	0.2	12.851003
2.666667	0.2	12.879819
2.670000	0.2	12.918194
2.673333	0.2	12.970606
2.676667	0.2	13.039796
2.680000	0.2	13.135678
2.683333	0.2	13.291031
2.686667	0.2	13.564842
2.690000	0.2	14.013392
2.693333	0.2	14.640070
2.696667	0.2	15.365682
2.700000	0.2	16.050445
2.703333	0.2	16.555549
2.706667	0.2	16.801307
2.710000	0.2	16.787819
2.713333	0.2	16.577346
2.716667	0.2	16.259315
2.720000	0.2	15.917115
2.723333	0.2	15.607046
2.726667	0.2	15.353516
2.730000	0.2	15.157751
2.733333	0.2	15.011369
2.736667	0.2	14.905869
2.740000	0.2	14.835529
2.743333	0.2	14.798795
2.746667	0.2	14.807576
2.750000	0.2	14.908853
2.753333	0.2	15.201603
2.756667	0.2	15.815413
2.760000	0.2	16.838598
2.763333	0.2	18.234126
2.766667	0.2	19.811535
2.770000	0.2	21.291675
2.773333	0.2	22.426053
2.776667	0.2	23.087076
2.780000	0.2	23.276730
2.783333	0.2	23.072224
2.786667	0.2	22.566153
2.790000	0.2	21.839763
2.793333	0.2	20.966400
2.796667	0.2	20.021973
2.800000	0.2	19.085406
2.803333	0.2	18.227245
2.806667	0.2	17.495571
2.810000	0.2	16.909287
2.813333	0.2	16.462280
2.816667	0.2	16.134261
2.820000	0.2	15.900609
2.823333	0.2	15.737243
2.826667	0.2	15.622715
2.830000	0.2	15.540004
2.833333	0.2	15.477437
2.836667	0.2	15.428668
2.840000	0.2	15.392436
2.843333	0.2	15.371108
2.846667	0.2	15.367411
2.850000	0.2	15.381841
2.853333	0.2	15.412891
2.856667	0.2	15.458021
2.860000	0.2	15.512741
2.863333	0.2	15.569727
2.866667	0.2	15.620228
2.870000	0.2	15.656952
2.873333	0.2	15.676841
2.876667	0.2	15.682277
2.880000	0.2	15.680098
2.883333	0.2	15.678976
2.886667	0.2	15.685932
2.890000	0.2	15.704094
2.893333	0.2	15.733681
2.896667	0.2	15.773535
2.900000	0.2	15.820525
2.903333	0.2	15.869705
2.906667	0.2	15.917130
2.910000	0.2	15.962478
2.913333	0.2	16.008555
2.916667	0.2	16.058068
2.920000	0.2	16.110632
2.923333	0.2	16.162860
2.926667	0.2	16.211567
2.930000	0.2	16.256936
2.933333	0.2	16.302274
2.936667	0.2	16.350599
2.940000	0.2	16.401659
2.943333	0.2	16.452035
2.946667	0.2	16.497329
2.950000	0.2	16.534166
2.953333	0.2	16.560998
2.956667	0.2	16.577953
2.960000	0.2	16.586843
2.963333	0.2	16.591541
2.966667	0.2	16.597435
2.970000	0.2	16.609462
2.973333	0.2	16.630184
2.976667	0.2	16.659806
2.980000	0.2	16.697718
2.983333	0.2	16.742587
2.986667	0.2	16.790283
2.990000	0.2	16.832860
2.993333	0.2	16.860692
2.996667	0.2	16.866197
3.000000	0.2	16.846667
3.003333	0.2	16.804590
3.006667	0.2	16.746110
3.010000	0.2	16.679169
3.013333	0.2	16.611413
3.016667	0.2	16.548222
3.020000	0.2	16.491951
3.023333	0.2	16.442794
3.026667	0.2	16.400811
3.030000	0.2	16.367521
3.033333	0.2	16.345364
3.036667	0.2	16.335374
3.040000	0.2	16.335195
3.043333	0.2	16.339495
3.046667	0.2	16.342626
3.050000	0.2	16.340776
3.053333	0.2	16.332523
3.056667	0.2	16.318794
3.060000	0.2	16.302322
3.063333	0.2	16.286470
3.066667	0.2	16.274417
3.070000	0.2	16.268632
3.073333	0.2	16.269901
3.076667	0.2	16.276334
3.080000	0.2	16.283371
3.083333	0.2	16.286253
3.086667	0.2	16.283730
3.090000	0.2	16.278161
3.093333	0.2	16.271840
3.096667	0.2	16.264943
3.100000	0.2	16.256542
