URL	chrom://pc-3vxg514/ChromeleonLocal/Data/2025/2025_w26.seq/38450.smp/UV_VIS_2.channel/UV_VIS_2.chm
Channel	UV_VIS_2

Injection Information:
Data Vault	ChromeleonLocal
Sequence	2025_w26
Name	photo-4C-DMBO_18jul25
Number	1516
Position	RC6
Comment	
Processing Method	General_ILK
Instrument Method	5-100pct_positive_3min
Type	Calibration Standard
Status	Finished
Inject Time	7/18/2025 1:53:21 PM +02:00
Volume (µl)	12.0000
Dilution Factor	1.0000
Weight	1.0000

Chromatogram Data Information:
Time Min. (min)	0.000000
Time Max. (min)	3.100000
Data Points	931
Detector	UV
Generating Data System	Chromeleon 7.3.2.11814
Exporting Data System	Chromeleon 7.3.2.0
Operator	Instrument Controller
Signal Quantity	Absorbance
Signal Unit	mAU
Signal Min.	-0.192827
Signal Max.	195.987004
Channel	UV_VIS_2
Driver Name	DAD3000.dll
Channel Type	Evaluation
Min. Step (s)	0.2
Max. Step (s)	0.2
Average Step (s)	0.2

Signal Parameter Information:
Signal Info	WVL:254 nm

Chromatogram Data:
Time (min)	Step (s)	Value (mAU)
0.000000	n.a.	0.000000
0.003333	0.2	-0.000133
0.006667	0.2	-0.000888
0.010000	0.2	-0.002878
0.013333	0.2	-0.006373
0.016667	0.2	-0.011354
0.020000	0.2	-0.017701
0.023333	0.2	-0.025320
0.026667	0.2	-0.034182
0.030000	0.2	-0.043598
0.033333	0.2	-0.052217
0.036667	0.2	-0.059464
0.040000	0.2	-0.065407
0.043333	0.2	-0.069453
0.046667	0.2	-0.070950
0.050000	0.2	-0.070552
0.053333	0.2	-0.069973
0.056667	0.2	-0.070800
0.060000	0.2	-0.073737
0.063333	0.2	-0.078382
0.066667	0.2	-0.083363
0.070000	0.2	-0.086984
0.073333	0.2	-0.088191
0.076667	0.2	-0.087264
0.080000	0.2	-0.085586
0.083333	0.2	-0.084517
0.086667	0.2	-0.084450
0.090000	0.2	-0.084948
0.093333	0.2	-0.085517
0.096667	0.2	-0.085954
0.100000	0.2	-0.086300
0.103333	0.2	-0.086869
0.106667	0.2	-0.088082
0.110000	0.2	-0.090067
0.113333	0.2	-0.092590
0.116667	0.2	-0.095286
0.120000	0.2	-0.097824
0.123333	0.2	-0.100013
0.126667	0.2	-0.101817
0.130000	0.2	-0.103427
0.133333	0.2	-0.105249
0.136667	0.2	-0.107574
0.140000	0.2	-0.110513
0.143333	0.2	-0.114030
0.146667	0.2	-0.117457
0.150000	0.2	-0.119789
0.153333	0.2	-0.121038
0.156667	0.2	-0.122373
0.160000	0.2	-0.124806
0.163333	0.2	-0.128207
0.166667	0.2	-0.131426
0.170000	0.2	-0.133376
0.173333	0.2	-0.133985
0.176667	0.2	-0.133945
0.180000	0.2	-0.133806
0.183333	0.2	-0.133767
0.186667	0.2	-0.134064
0.190000	0.2	-0.134865
0.193333	0.2	-0.135988
0.196667	0.2	-0.137137
0.200000	0.2	-0.138201
0.203333	0.2	-0.139159
0.206667	0.2	-0.139871
0.210000	0.2	-0.140215
0.213333	0.2	-0.140293
0.216667	0.2	-0.140697
0.220000	0.2	-0.125544
0.223333	0.2	0.297868
0.226667	0.2	2.965672
0.230000	0.2	11.402638
0.233333	0.2	27.831883
0.236667	0.2	49.131355
0.240000	0.2	67.381790
0.243333	0.2	75.471545
0.246667	0.2	71.909781
0.250000	0.2	60.587274
0.253333	0.2	47.100140
0.256667	0.2	35.563540
0.260000	0.2	27.640587
0.263333	0.2	23.087133
0.266667	0.2	20.701980
0.270000	0.2	19.147979
0.273333	0.2	17.473489
0.276667	0.2	15.272209
0.280000	0.2	12.578255
0.283333	0.2	9.683533
0.286667	0.2	6.954590
0.290000	0.2	4.664797
0.293333	0.2	2.919930
0.296667	0.2	1.700688
0.300000	0.2	0.927311
0.303333	0.2	0.485647
0.306667	0.2	0.247557
0.310000	0.2	0.108011
0.313333	0.2	0.009614
0.316667	0.2	-0.064935
0.320000	0.2	-0.108162
0.323333	0.2	-0.081061
0.326667	0.2	0.087291
0.330000	0.2	0.432502
0.333333	0.2	0.869332
0.336667	0.2	1.235842
0.340000	0.2	1.466295
0.343333	0.2	1.685117
0.346667	0.2	2.085662
0.350000	0.2	2.717168
0.353333	0.2	3.401594
0.356667	0.2	3.848200
0.360000	0.2	3.850313
0.363333	0.2	3.405468
0.366667	0.2	2.684305
0.370000	0.2	1.904033
0.373333	0.2	1.221579
0.376667	0.2	0.703570
0.380000	0.2	0.350182
0.383333	0.2	0.129628
0.386667	0.2	0.001900
0.390000	0.2	-0.068683
0.393333	0.2	-0.107836
0.396667	0.2	-0.131195
0.400000	0.2	-0.147355
0.403333	0.2	-0.160476
0.406667	0.2	-0.171679
0.410000	0.2	-0.180452
0.413333	0.2	-0.186337
0.416667	0.2	-0.189868
0.420000	0.2	-0.191933
0.423333	0.2	-0.192827
0.426667	0.2	-0.192493
0.430000	0.2	-0.191188
0.433333	0.2	-0.189439
0.436667	0.2	-0.187611
0.440000	0.2	-0.185928
0.443333	0.2	-0.184647
0.446667	0.2	-0.183831
0.450000	0.2	-0.183352
0.453333	0.2	-0.183018
0.456667	0.2	-0.182408
0.460000	0.2	-0.181069
0.463333	0.2	-0.179061
0.466667	0.2	-0.176839
0.470000	0.2	-0.174724
0.473333	0.2	-0.172901
0.476667	0.2	-0.171534
0.480000	0.2	-0.170374
0.483333	0.2	-0.168887
0.486667	0.2	-0.167003
0.490000	0.2	-0.165026
0.493333	0.2	-0.163198
0.496667	0.2	-0.161904
0.500000	0.2	-0.161462
0.503333	0.2	-0.161504
0.506667	0.2	-0.161327
0.510000	0.2	-0.160676
0.513333	0.2	-0.159676
0.516667	0.2	-0.158414
0.520000	0.2	-0.157205
0.523333	0.2	-0.156818
0.526667	0.2	-0.157871
0.530000	0.2	-0.160291
0.533333	0.2	-0.163379
0.536667	0.2	-0.165978
0.540000	0.2	-0.166794
0.543333	0.2	-0.165103
0.546667	0.2	-0.161044
0.550000	0.2	-0.154942
0.553333	0.2	-0.146724
0.556667	0.2	-0.136116
0.560000	0.2	-0.123055
0.563333	0.2	-0.108043
0.566667	0.2	-0.092349
0.570000	0.2	-0.077577
0.573333	0.2	-0.064710
0.576667	0.2	-0.053720
0.580000	0.2	-0.044150
0.583333	0.2	-0.035768
0.586667	0.2	-0.028882
0.590000	0.2	-0.024009
0.593333	0.2	-0.020251
0.596667	0.2	-0.013213
0.600000	0.2	0.005085
0.603333	0.2	0.043998
0.606667	0.2	0.112116
0.610000	0.2	0.215958
0.613333	0.2	0.358812
0.616667	0.2	0.540443
0.620000	0.2	0.758406
0.623333	0.2	1.009959
0.626667	0.2	1.292805
0.630000	0.2	1.603760
0.633333	0.2	1.936301
0.636667	0.2	2.278890
0.640000	0.2	2.615506
0.643333	0.2	2.928409
0.646667	0.2	3.201652
0.650000	0.2	3.424242
0.653333	0.2	3.592110
0.656667	0.2	3.707940
0.660000	0.2	3.779300
0.663333	0.2	3.816130
0.666667	0.2	3.828341
0.670000	0.2	3.824236
0.673333	0.2	3.809970
0.676667	0.2	3.789662
0.680000	0.2	3.765657
0.683333	0.2	3.738876
0.686667	0.2	3.709445
0.690000	0.2	3.677357
0.693333	0.2	3.642978
0.696667	0.2	3.607542
0.700000	0.2	3.573017
0.703333	0.2	3.541036
0.706667	0.2	3.512069
0.710000	0.2	3.485817
0.713333	0.2	3.462177
0.716667	0.2	3.441660
0.720000	0.2	3.425079
0.723333	0.2	3.412879
0.726667	0.2	3.404404
0.730000	0.2	3.397477
0.733333	0.2	3.388485
0.736667	0.2	3.373578
0.740000	0.2	3.350903
0.743333	0.2	3.321520
0.746667	0.2	3.287781
0.750000	0.2	3.251320
0.753333	0.2	3.212799
0.756667	0.2	3.172819
0.760000	0.2	3.132233
0.763333	0.2	3.091822
0.766667	0.2	3.052285
0.770000	0.2	3.014202
0.773333	0.2	2.977530
0.776667	0.2	2.941318
0.780000	0.2	2.904408
0.783333	0.2	2.866358
0.786667	0.2	2.827583
0.790000	0.2	2.789118
0.793333	0.2	2.752249
0.796667	0.2	2.717617
0.800000	0.2	2.684668
0.803333	0.2	2.652266
0.806667	0.2	2.619555
0.810000	0.2	2.586155
0.813333	0.2	2.552015
0.816667	0.2	2.517458
0.820000	0.2	2.483390
0.823333	0.2	2.451002
0.826667	0.2	2.420918
0.830000	0.2	2.392732
0.833333	0.2	2.365465
0.836667	0.2	2.338346
0.840000	0.2	2.311060
0.843333	0.2	2.283690
0.846667	0.2	2.256597
0.850000	0.2	2.229873
0.853333	0.2	2.203107
0.856667	0.2	2.175831
0.860000	0.2	2.147924
0.863333	0.2	2.119743
0.866667	0.2	2.092123
0.870000	0.2	2.066251
0.873333	0.2	2.043115
0.876667	0.2	2.022462
0.880000	0.2	2.002576
0.883333	0.2	1.981497
0.886667	0.2	1.958341
0.890000	0.2	1.933491
0.893333	0.2	1.907909
0.896667	0.2	1.882525
0.900000	0.2	1.857983
0.903333	0.2	1.834501
0.906667	0.2	1.812087
0.910000	0.2	1.790842
0.913333	0.2	1.770869
0.916667	0.2	1.752109
0.920000	0.2	1.734237
0.923333	0.2	1.716520
0.926667	0.2	1.698152
0.930000	0.2	1.678848
0.933333	0.2	1.658766
0.936667	0.2	1.638322
0.940000	0.2	1.618200
0.943333	0.2	1.598953
0.946667	0.2	1.580742
0.950000	0.2	1.563439
0.953333	0.2	1.546558
0.956667	0.2	1.529564
0.960000	0.2	1.512258
0.963333	0.2	1.494564
0.966667	0.2	1.476436
0.970000	0.2	1.458047
0.973333	0.2	1.439660
0.976667	0.2	1.421482
0.980000	0.2	1.403670
0.983333	0.2	1.386144
0.986667	0.2	1.368463
0.990000	0.2	1.350113
0.993333	0.2	1.330808
0.996667	0.2	1.310517
1.000000	0.2	1.289605
1.003333	0.2	1.268980
1.006667	0.2	1.249561
1.010000	0.2	1.231460
1.013333	0.2	1.214110
1.016667	0.2	1.196974
1.020000	0.2	1.179651
1.023333	0.2	1.161765
1.026667	0.2	1.143240
1.030000	0.2	1.124255
1.033333	0.2	1.104823
1.036667	0.2	1.084969
1.040000	0.2	1.065235
1.043333	0.2	1.046188
1.046667	0.2	1.027612
1.050000	0.2	1.008793
1.053333	0.2	0.989223
1.056667	0.2	0.968856
1.060000	0.2	0.948304
1.063333	0.2	0.928544
1.066667	0.2	0.909992
1.070000	0.2	0.892546
1.073333	0.2	0.876503
1.076667	0.2	0.862352
1.080000	0.2	0.849820
1.083333	0.2	0.837872
1.086667	0.2	0.825445
1.090000	0.2	0.812159
1.093333	0.2	0.798683
1.096667	0.2	0.786097
1.100000	0.2	0.774972
1.103333	0.2	0.765448
1.106667	0.2	0.757491
1.110000	0.2	0.750638
1.113333	0.2	0.744178
1.116667	0.2	0.737849
1.120000	0.2	0.732079
1.123333	0.2	0.727533
1.126667	0.2	0.724686
1.130000	0.2	0.723747
1.133333	0.2	0.724517
1.136667	0.2	0.726396
1.140000	0.2	0.728914
1.143333	0.2	0.731836
1.146667	0.2	0.734773
1.150000	0.2	0.737362
1.153333	0.2	0.739786
1.156667	0.2	0.742739
1.160000	0.2	0.747068
1.163333	0.2	0.753453
1.166667	0.2	0.762189
1.170000	0.2	0.773238
1.173333	0.2	0.786526
1.176667	0.2	0.801812
1.180000	0.2	0.818121
1.183333	0.2	0.833857
1.186667	0.2	0.847779
1.190000	0.2	0.859564
1.193333	0.2	0.869347
1.196667	0.2	0.877074
1.200000	0.2	0.882328
1.203333	0.2	0.884474
1.206667	0.2	0.882899
1.210000	0.2	0.877397
1.213333	0.2	0.868584
1.216667	0.2	0.857857
1.220000	0.2	0.846654
1.223333	0.2	0.835818
1.226667	0.2	0.825684
1.230000	0.2	0.816410
1.233333	0.2	0.808221
1.236667	0.2	0.801474
1.240000	0.2	0.796395
1.243333	0.2	0.793018
1.246667	0.2	0.791423
1.250000	0.2	0.791569
1.253333	0.2	0.793012
1.256667	0.2	0.795242
1.260000	0.2	0.798064
1.263333	0.2	0.801468
1.266667	0.2	0.805526
1.270000	0.2	0.810398
1.273333	0.2	0.816191
1.276667	0.2	0.823082
1.280000	0.2	0.831419
1.283333	0.2	0.841364
1.286667	0.2	0.852647
1.290000	0.2	0.864711
1.293333	0.2	0.877083
1.296667	0.2	0.889650
1.300000	0.2	0.902473
1.303333	0.2	0.915566
1.306667	0.2	0.929124
1.310000	0.2	0.943679
1.313333	0.2	0.959758
1.316667	0.2	0.977251
1.320000	0.2	0.995162
1.323333	0.2	1.012302
1.326667	0.2	1.028218
1.330000	0.2	1.042940
1.333333	0.2	1.056002
1.336667	0.2	1.066405
1.340000	0.2	1.073346
1.343333	0.2	1.076664
1.346667	0.2	1.076959
1.350000	0.2	1.075476
1.353333	0.2	1.073505
1.356667	0.2	1.071729
1.360000	0.2	1.070231
1.363333	0.2	1.069064
1.366667	0.2	1.068608
1.370000	0.2	1.069156
1.373333	0.2	1.070483
1.376667	0.2	1.072430
1.380000	0.2	1.075460
1.383333	0.2	1.080248
1.386667	0.2	1.087227
1.390000	0.2	1.096439
1.393333	0.2	1.107252
1.396667	0.2	1.118394
1.400000	0.2	1.128612
1.403333	0.2	1.137313
1.406667	0.2	1.144677
1.410000	0.2	1.151309
1.413333	0.2	1.157863
1.416667	0.2	1.164829
1.420000	0.2	1.172547
1.423333	0.2	1.181482
1.426667	0.2	1.192203
1.430000	0.2	1.204936
1.433333	0.2	1.219388
1.436667	0.2	1.234952
1.440000	0.2	1.250947
1.443333	0.2	1.266765
1.446667	0.2	1.281823
1.450000	0.2	1.295436
1.453333	0.2	1.307028
1.456667	0.2	1.316564
1.460000	0.2	1.324726
1.463333	0.2	1.332765
1.466667	0.2	1.341956
1.470000	0.2	1.352878
1.473333	0.2	1.365287
1.476667	0.2	1.378687
1.480000	0.2	1.392872
1.483333	0.2	1.408042
1.486667	0.2	1.424531
1.490000	0.2	1.442296
1.493333	0.2	1.460656
1.496667	0.2	1.478611
1.500000	0.2	1.495200
1.503333	0.2	1.509780
1.506667	0.2	1.522375
1.510000	0.2	1.533705
1.513333	0.2	1.544822
1.516667	0.2	1.556660
1.520000	0.2	1.569897
1.523333	0.2	1.584989
1.526667	0.2	1.602006
1.530000	0.2	1.620451
1.533333	0.2	1.639444
1.536667	0.2	1.658207
1.540000	0.2	1.676309
1.543333	0.2	1.693479
1.546667	0.2	1.709413
1.550000	0.2	1.724097
1.553333	0.2	1.738217
1.556667	0.2	1.752562
1.560000	0.2	1.767104
1.563333	0.2	1.781321
1.566667	0.2	1.795052
1.570000	0.2	1.808661
1.573333	0.2	1.822918
1.576667	0.2	1.838569
1.580000	0.2	1.855741
1.583333	0.2	1.874162
1.586667	0.2	1.893869
1.590000	0.2	1.915287
1.593333	0.2	1.938778
1.596667	0.2	1.964219
1.600000	0.2	1.990924
1.603333	0.2	2.018049
1.606667	0.2	2.045133
1.610000	0.2	2.072219
1.613333	0.2	2.099748
1.616667	0.2	2.128611
1.620000	0.2	2.160074
1.623333	0.2	2.195033
1.626667	0.2	2.232960
1.630000	0.2	2.271660
1.633333	0.2	2.307999
1.636667	0.2	2.339064
1.640000	0.2	2.363355
1.643333	0.2	2.381015
1.646667	0.2	2.392787
1.650000	0.2	2.399252
1.653333	0.2	2.401217
1.656667	0.2	2.400128
1.660000	0.2	2.397651
1.663333	0.2	2.394981
1.666667	0.2	2.392564
1.670000	0.2	2.390348
1.673333	0.2	2.388388
1.676667	0.2	2.387277
1.680000	0.2	2.387908
1.683333	0.2	2.390934
1.686667	0.2	2.396522
1.690000	0.2	2.404462
1.693333	0.2	2.414455
1.696667	0.2	2.426198
1.700000	0.2	2.439288
1.703333	0.2	2.453461
1.706667	0.2	2.468896
1.710000	0.2	2.485862
1.713333	0.2	2.504191
1.716667	0.2	2.523443
1.720000	0.2	2.543375
1.723333	0.2	2.564256
1.726667	0.2	2.586851
1.730000	0.2	2.611742
1.733333	0.2	2.638844
1.736667	0.2	2.667839
1.740000	0.2	2.698643
1.743333	0.2	2.731120
1.746667	0.2	2.764484
1.750000	0.2	2.797335
1.753333	0.2	2.828514
1.756667	0.2	2.857873
1.760000	0.2	2.886082
1.763333	0.2	2.913815
1.766667	0.2	2.941311
1.770000	0.2	2.968380
1.773333	0.2	2.994310
1.776667	0.2	3.017821
1.780000	0.2	3.037475
1.783333	0.2	3.052258
1.786667	0.2	3.061855
1.790000	0.2	3.066674
1.793333	0.2	3.067506
1.796667	0.2	3.065033
1.800000	0.2	3.060094
1.803333	0.2	3.054295
1.806667	0.2	3.049580
1.810000	0.2	3.047171
1.813333	0.2	3.047360
1.816667	0.2	3.050151
1.820000	0.2	3.055660
1.823333	0.2	3.063955
1.826667	0.2	3.074888
1.830000	0.2	3.088235
1.833333	0.2	3.103750
1.836667	0.2	3.120987
1.840000	0.2	3.139262
1.843333	0.2	3.157724
1.846667	0.2	3.175594
1.850000	0.2	3.192666
1.853333	0.2	3.209474
1.856667	0.2	3.226885
1.860000	0.2	3.245556
1.863333	0.2	3.265703
1.866667	0.2	3.287290
1.870000	0.2	3.310176
1.873333	0.2	3.334004
1.876667	0.2	3.358426
1.880000	0.2	3.383406
1.883333	0.2	3.409035
1.886667	0.2	3.435185
1.890000	0.2	3.461234
1.893333	0.2	3.486130
1.896667	0.2	3.508988
1.900000	0.2	3.529744
1.903333	0.2	3.549285
1.906667	0.2	3.568917
1.910000	0.2	3.589849
1.913333	0.2	3.613327
1.916667	0.2	3.640837
1.920000	0.2	3.673746
1.923333	0.2	3.712808
1.926667	0.2	3.758173
1.930000	0.2	3.809668
1.933333	0.2	3.867302
1.936667	0.2	3.932237
1.940000	0.2	4.007109
1.943333	0.2	4.094475
1.946667	0.2	4.194129
1.950000	0.2	4.301099
1.953333	0.2	4.405470
1.956667	0.2	4.494615
1.960000	0.2	4.557206
1.963333	0.2	4.587013
1.966667	0.2	4.584529
1.970000	0.2	4.556317
1.973333	0.2	4.512875
1.976667	0.2	4.465694
1.980000	0.2	4.424477
1.983333	0.2	4.395377
1.986667	0.2	4.380623
1.990000	0.2	4.379797
1.993333	0.2	4.391448
1.996667	0.2	4.413510
2.000000	0.2	4.443316
2.003333	0.2	4.478033
2.006667	0.2	4.515243
2.010000	0.2	4.553413
2.013333	0.2	4.591614
2.016667	0.2	4.628643
2.020000	0.2	4.662880
2.023333	0.2	4.692711
2.026667	0.2	4.716520
2.030000	0.2	4.732709
2.033333	0.2	4.740416
2.036667	0.2	4.740357
2.040000	0.2	4.734882
2.043333	0.2	4.727146
2.046667	0.2	4.720421
2.050000	0.2	4.718020
2.053333	0.2	4.723020
2.056667	0.2	4.737655
2.060000	0.2	4.762752
2.063333	0.2	4.797166
2.066667	0.2	4.837870
2.070000	0.2	4.881365
2.073333	0.2	4.925385
2.076667	0.2	4.969338
2.080000	0.2	5.013623
2.083333	0.2	5.059176
2.086667	0.2	5.107312
2.090000	0.2	5.159161
2.093333	0.2	5.215382
2.096667	0.2	5.276705
2.100000	0.2	5.344339
2.103333	0.2	5.420122
2.106667	0.2	5.507750
2.110000	0.2	5.614864
2.113333	0.2	5.752951
2.116667	0.2	5.932558
2.120000	0.2	6.155727
2.123333	0.2	6.411047
2.126667	0.2	6.674778
2.130000	0.2	6.916656
2.133333	0.2	7.107092
2.136667	0.2	7.223802
2.140000	0.2	7.256654
2.143333	0.2	7.209378
2.146667	0.2	7.097131
2.150000	0.2	6.941158
2.153333	0.2	6.763565
2.156667	0.2	6.583743
2.160000	0.2	6.416448
2.163333	0.2	6.271672
2.166667	0.2	6.155967
2.170000	0.2	6.073896
2.173333	0.2	6.028423
2.176667	0.2	6.020530
2.180000	0.2	6.049323
2.183333	0.2	6.112909
2.186667	0.2	6.209591
2.190000	0.2	6.338981
2.193333	0.2	6.501486
2.196667	0.2	6.695275
2.200000	0.2	6.913723
2.203333	0.2	7.146409
2.206667	0.2	7.382312
2.210000	0.2	7.612141
2.213333	0.2	7.828403
2.216667	0.2	8.023686
2.220000	0.2	8.189269
2.223333	0.2	8.316307
2.226667	0.2	8.399399
2.230000	0.2	8.439870
2.233333	0.2	8.445655
2.236667	0.2	8.426900
2.240000	0.2	8.390277
2.243333	0.2	8.336390
2.246667	0.2	8.262035
2.250000	0.2	8.165638
2.253333	0.2	8.052101
2.256667	0.2	7.933703
2.260000	0.2	7.826977
2.263333	0.2	7.747685
2.266667	0.2	7.706019
2.270000	0.2	7.703915
2.273333	0.2	7.735595
2.276667	0.2	7.790798
2.280000	0.2	7.859620
2.283333	0.2	7.937214
2.286667	0.2	8.025858
2.290000	0.2	8.133392
2.293333	0.2	8.268706
2.296667	0.2	8.436532
2.300000	0.2	8.635490
2.303333	0.2	8.860830
2.306667	0.2	9.108333
2.310000	0.2	9.375591
2.313333	0.2	9.660845
2.316667	0.2	9.964732
2.320000	0.2	10.313874
2.323333	0.2	10.849950
2.326667	0.2	12.030691
2.330000	0.2	14.907489
2.333333	0.2	21.267457
2.336667	0.2	33.308518
2.340000	0.2	52.700836
2.343333	0.2	79.390795
2.346667	0.2	110.912514
2.350000	0.2	142.797652
2.353333	0.2	169.964892
2.356667	0.2	188.348398
2.360000	0.2	195.987004
2.363333	0.2	193.228966
2.366667	0.2	182.183921
2.370000	0.2	165.810877
2.373333	0.2	147.045977
2.376667	0.2	128.226698
2.380000	0.2	110.872016
2.383333	0.2	95.733532
2.386667	0.2	82.985368
2.390000	0.2	72.446249
2.393333	0.2	63.772660
2.396667	0.2	56.596859
2.400000	0.2	50.606521
2.403333	0.2	45.576334
2.406667	0.2	41.364047
2.410000	0.2	37.880821
2.413333	0.2	35.049271
2.416667	0.2	32.771246
2.420000	0.2	30.925821
2.423333	0.2	29.399606
2.426667	0.2	28.130825
2.430000	0.2	27.141174
2.433333	0.2	26.534894
2.436667	0.2	26.455320
2.440000	0.2	27.006606
2.443333	0.2	28.171527
2.446667	0.2	29.768681
2.450000	0.2	31.478571
2.453333	0.2	32.933197
2.456667	0.2	33.828970
2.460000	0.2	34.010705
2.463333	0.2	33.493327
2.466667	0.2	32.423672
2.470000	0.2	31.011539
2.473333	0.2	29.463519
2.476667	0.2	27.940975
2.480000	0.2	26.546833
2.483333	0.2	25.332740
2.486667	0.2	24.312854
2.490000	0.2	23.473639
2.493333	0.2	22.778290
2.496667	0.2	22.172051
2.500000	0.2	21.593808
2.503333	0.2	20.992688
2.506667	0.2	20.343786
2.510000	0.2	19.656167
2.513333	0.2	18.968436
2.516667	0.2	18.332120
2.520000	0.2	17.788521
2.523333	0.2	17.349699
2.526667	0.2	16.994839
2.530000	0.2	16.684823
2.533333	0.2	16.386557
2.536667	0.2	16.092744
2.540000	0.2	15.824903
2.543333	0.2	15.616957
2.546667	0.2	15.489644
2.550000	0.2	15.432765
2.553333	0.2	15.406397
2.556667	0.2	15.359215
2.560000	0.2	15.251910
2.563333	0.2	15.072006
2.566667	0.2	14.833567
2.570000	0.2	14.565188
2.573333	0.2	14.295594
2.576667	0.2	14.044939
2.580000	0.2	13.824406
2.583333	0.2	13.642936
2.586667	0.2	13.517588
2.590000	0.2	13.478234
2.593333	0.2	13.555645
2.596667	0.2	13.757419
2.600000	0.2	14.053656
2.603333	0.2	14.386067
2.606667	0.2	14.690072
2.610000	0.2	14.912237
2.613333	0.2	15.018645
2.616667	0.2	14.998572
2.620000	0.2	14.864641
2.623333	0.2	14.648544
2.626667	0.2	14.393049
2.630000	0.2	14.141360
2.633333	0.2	13.925859
2.636667	0.2	13.760461
2.640000	0.2	13.640561
2.643333	0.2	13.550841
2.646667	0.2	13.476527
2.650000	0.2	13.411280
2.653333	0.2	13.358252
2.656667	0.2	13.326519
2.660000	0.2	13.325965
2.663333	0.2	13.361571
2.666667	0.2	13.429145
2.670000	0.2	13.516149
2.673333	0.2	13.608232
2.676667	0.2	13.696356
2.680000	0.2	13.778729
2.683333	0.2	13.857285
2.686667	0.2	13.932662
2.690000	0.2	14.001859
2.693333	0.2	14.060357
2.696667	0.2	14.106261
2.700000	0.2	14.142637
2.703333	0.2	14.176800
2.706667	0.2	14.217845
2.710000	0.2	14.274261
2.713333	0.2	14.351670
2.716667	0.2	14.450740
2.720000	0.2	14.567918
2.723333	0.2	14.699441
2.726667	0.2	14.843682
2.730000	0.2	14.998732
2.733333	0.2	15.159251
2.736667	0.2	15.317319
2.740000	0.2	15.465374
2.743333	0.2	15.596877
2.746667	0.2	15.705495
2.750000	0.2	15.785634
2.753333	0.2	15.832596
2.756667	0.2	15.840693
2.760000	0.2	15.803113
2.763333	0.2	15.716065
2.766667	0.2	15.583462
2.770000	0.2	15.417488
2.773333	0.2	15.234848
2.776667	0.2	15.051359
2.780000	0.2	14.877618
2.783333	0.2	14.717846
2.786667	0.2	14.571978
2.790000	0.2	14.438204
2.793333	0.2	14.313693
2.796667	0.2	14.195703
2.800000	0.2	14.087644
2.803333	0.2	14.010563
2.806667	0.2	14.009884
2.810000	0.2	14.140012
2.813333	0.2	14.426287
2.816667	0.2	14.835578
2.820000	0.2	15.286130
2.823333	0.2	15.684973
2.826667	0.2	15.957830
2.830000	0.2	16.062446
2.833333	0.2	15.995991
2.836667	0.2	15.790893
2.840000	0.2	15.493227
2.843333	0.2	15.142919
2.846667	0.2	14.772696
2.850000	0.2	14.416068
2.853333	0.2	14.107830
2.856667	0.2	13.875621
2.860000	0.2	13.731730
2.863333	0.2	13.671813
2.866667	0.2	13.679911
2.870000	0.2	13.735053
2.873333	0.2	13.816505
2.876667	0.2	13.907527
2.880000	0.2	13.997220
2.883333	0.2	14.080210
2.886667	0.2	14.154640
2.890000	0.2	14.219361
2.893333	0.2	14.272809
2.896667	0.2	14.314923
2.900000	0.2	14.349431
2.903333	0.2	14.383431
2.906667	0.2	14.424562
2.910000	0.2	14.477657
2.913333	0.2	14.542583
2.916667	0.2	14.614794
2.920000	0.2	14.687937
2.923333	0.2	14.756643
2.926667	0.2	14.818769
2.930000	0.2	14.876225
2.933333	0.2	14.933999
2.936667	0.2	14.998580
2.940000	0.2	15.076162
2.943333	0.2	15.170418
2.946667	0.2	15.280195
2.950000	0.2	15.397785
2.953333	0.2	15.510452
2.956667	0.2	15.605696
2.960000	0.2	15.676023
2.963333	0.2	15.720508
2.966667	0.2	15.743642
2.970000	0.2	15.752807
2.973333	0.2	15.755771
2.976667	0.2	15.759542
2.980000	0.2	15.771817
2.983333	0.2	15.803514
2.986667	0.2	15.867152
2.990000	0.2	15.969260
2.993333	0.2	16.103016
2.996667	0.2	16.248602
3.000000	0.2	16.381788
3.003333	0.2	16.484051
3.006667	0.2	16.547157
3.010000	0.2	16.571871
3.013333	0.2	16.564487
3.016667	0.2	16.533655
3.020000	0.2	16.489264
3.023333	0.2	16.441934
3.026667	0.2	16.400155
3.030000	0.2	16.367470
3.033333	0.2	16.342778
3.036667	0.2	16.322649
3.040000	0.2	16.304202
3.043333	0.2	16.287135
3.046667	0.2	16.273459
3.050000	0.2	16.265617
3.053333	0.2	16.264442
3.056667	0.2	16.268739
3.060000	0.2	16.277559
3.063333	0.2	16.291511
3.066667	0.2	16.310441
3.070000	0.2	16.331591
3.073333	0.2	16.350829
3.076667	0.2	16.364605
3.080000	0.2	16.371158
3.083333	0.2	16.370962
3.086667	0.2	16.366096
3.090000	0.2	16.358838
3.093333	0.2	16.350424
3.096667	0.2	16.340777
3.100000	0.2	16.330048
